2847.21428571429
2851.77040816327
2943.8582361516
2894.4397907122
2906.76551994705
2817.35369709369
2820.61414730128
2796.42742249405
2811.3968923159
2816.15425715048
2809.50038163973
2848.96464009404
2828.9671658016
2846.2552253872
2756.52270928812
2719.27108719611
2676.39458096782
2725.00925375583
2653.22287848756
2681.9926728813
2689.27891053264
2825.33041692316
3217.02110142865
3231.87673704089
3250.4569701094
3291.56718653016
3495.38381606372
3570.71354348774
3665.09114752433
3631.72749412973
3891.74695883475
3799.55074748941
3796.72569409731
3737.74528737607
3678.83490970635
3590.98955901304
3541.70459051211
3493.22569118982
3426.49528467626
3533.95990719938
3507.17705668514
3411.5215526362
3449.27001316219
3413.53644079346
3384.49812359393
3639.60540048008
3501.7050147315
3439.08322796496
3638.07728311032
3748.4289057453
4045.61255533492
3990.14022995386
4008.20164210001
4089.54438195001
4004.00549752501
4175.43367627322
4469.61698511085
4500.64434331722
4770.09831879456
4648.59129602352
4707.90620345041
4816.27004606109
4955.60789991387
4857.35019277717
4874.3966075788
4736.36827846603
4682.27054428988
4760.32264826918
4660.58531624995
4913.18636508924
4806.88733901144
4703.03824336776
4829.46408312721
4769.14522004669
4773.56341861479
4674.59460299945
4649.90927421377
4566.70146891279
4614.72279256187
4493.8140216646
4759.25587725998
4960.30902888427
5060.50124110682
5516.10829531348
5431.45770279109
5385.13929544887
5483.41506005966
5596.38541291254
5774.35788341879
5723.68946317459
6156.06878723355
6071.13530243115
5937.76849511464
5918.71360260645
6025.30548813456
5865.92652469638
6340.00320150378
6225.71725853923
5858.02316864357
5821.23579945474
5910.57609949369
5921.96352095842
6383.53755517568
6523.92772980599
6798.64717767699
6836.31523641435
6856.72129095618
6751.95548445931
6713.7443784265
6944.6912085389
6709.21326507183
6685.69803185242
6756.00531529153
6952.07636419928
7008.35662389933
6866.11686504938
6820.67994611728
6997.84566425176
6748.78525966235
6619.51488397218
6610.62096368845
6580.14803771071
6478.8517493028
6419.00519578117
6264.57625322537
6064.17794942356
5983.30809589331
5978.71466047235
5907.37789901004
5841.13662050933
5734.69829047295
5584.29126972488
5556.05617903024
5617.90930909951
5506.63007273526
5428.44221039703
5285.83919536867
5141.35068141377
4996.11134702707
5181.03196509656
4992.31539616109
4944.93572500673
5059.36888750625
5094.91396697009
4960.34868361508
4909.18092049972
4751.38228332117
4688.56926308394
4581.17145857795
4483.94492582238
4502.73457397792
4701.11067583664
4681.53134184831
4815.27910314486
4849.18773863451
4765.46004301776
4818.92718280221
4784.00381260205
4761.36068313048
4640.69206290687
4866.42834412781
4724.25489097582
4702.87954162041
4568.74528864752
4533.6206251727
4411.07629480322
4406.92798803156
4792.86170317216
4667.80015294558
4474.17157059233
4486.30217269287
4397.92344607195
4320.85748563824
4358.86766523551
4248.59140343298
4181.33487461633
4115.38238357231
4098.49792760286
4091.1766470598
4192.7354579841
4260.3257824138
4323.5882265271
4255.76049606088
4265.99188919939
4398.56389711372
4365.09504731988
4236.87397251132
4133.45440304623
4067.27908854292
4204.759153647
4173.77635695793
4078.86376003236
3942.94492003005
3907.87742574219
3913.38618104632
3822.21573954301
3773.84318671851
3672.85438766719
3574.00764569096
3536.43567099875
3596.69026592741
3574.92667550402
3810.28905582516
3765.33983755194
3763.81556344109
4139.40016605244
4348.22872562012
4328.92667379011
4256.28905423367
4301.33983607413
4224.38699064026
4354.57363416596
4571.8898031541
4506.46910292881
4641.57845271961
4720.82284895392
4770.33550260007
4643.59725241435
4532.55459152761
4750.01497784707
4729.15676514371
4833.2884247763
4861.91068014942
4827.05991728161
4801.62706604721
4742.65370418669
5233.53558245907
5372.78304085485
5485.79853793665
5341.2414995126
5380.08139240456
5238.43272151852
5071.75895569577
4874.8476017175
5145.57277302339
5053.74614637886
4994.40713592323
